Freq (Hz)	mic2/mic1_Real	mic2/mic1_Imag	mic3/mic1_Real	mic3/mic1_Imag	mic4/mic1_Real	mic4/mic1_Imag
900.000000000000110E+0	743.744817463014680E-3	69.616107558425844E-3	479.345575834243530E-3	57.813922365258473E-3	760.532802910405370E-3	19.586571528018733E-3
901.000000000000110E+0	741.987205744910280E-3	70.867355567370616E-3	476.720016701150500E-3	58.606828145134356E-3	757.869807500517130E-3	20.900558146013746E-3
902.000000000000110E+0	741.003778175822860E-3	70.377246122169071E-3	473.911287756814680E-3	59.805312485974871E-3	756.980622160304040E-3	21.326999759369272E-3
903.000000000000110E+0	739.499078518906840E-3	70.275141619683415E-3	472.551060593679240E-3	60.079002379476762E-3	755.529971409971910E-3	21.016724045350342E-3
904.000000000000110E+0	738.935015575474700E-3	69.841102389069321E-3	469.001747625680810E-3	59.517402695528222E-3	753.703581160707010E-3	22.121012010685226E-3
905.000000000000110E+0	735.929440769182100E-3	67.332063735899492E-3	463.902040999848330E-3	60.647134363252315E-3	752.332783839821380E-3	22.731438174556012E-3
906.000000000000110E+0	731.645991525895820E-3	67.210415505989385E-3	460.581018059087580E-3	63.026965942117208E-3	750.038773807551240E-3	22.998465364502566E-3
907.000000000000110E+0	729.293534031367540E-3	67.653858708097814E-3	459.024197750755870E-3	63.162805381970791E-3	748.602515075917460E-3	22.513100433254052E-3
908.000000000000110E+0	725.623534515191570E-3	68.324721182696210E-3	456.420291625081080E-3	62.890600821422102E-3	745.880652345231380E-3	22.033305140726607E-3
909.000000000000110E+0	722.619252222989730E-3	68.764543214075283E-3	453.161542990759340E-3	63.636683258768353E-3	743.476595368323670E-3	22.417928655789870E-3
910.000000000000110E+0	720.330253006272510E-3	67.987744787261328E-3	449.589086620480640E-3	65.625616335574885E-3	741.318064540774420E-3	22.362455493096612E-3
911.000000000000110E+0	718.250823521381360E-3	68.041311381644126E-3	446.532354533606680E-3	67.579769598472977E-3	738.693935452753640E-3	23.451182741921480E-3
912.000000000000110E+0	716.031467536291990E-3	68.212254512204112E-3	444.127526370685980E-3	68.733130502218784E-3	736.323819108023140E-3	25.345576032076128E-3
913.000000000000110E+0	713.688033815155220E-3	68.084031043631602E-3	441.709514223692700E-3	68.649885400101696E-3	734.938037710145650E-3	25.682551043586861E-3
914.000000000000110E+0	712.227333878251320E-3	67.844664894911699E-3	438.832062533369650E-3	68.361224530345099E-3	732.951035913210540E-3	25.366952422509383E-3
915.000000000000110E+0	710.413758769617430E-3	67.839688829891387E-3	435.786808139556110E-3	68.100315715050944E-3	730.068629085675270E-3	26.340251309841703E-3
916.000000000000110E+0	708.391236618407300E-3	68.009924033727354E-3	432.380800243290120E-3	69.052600690612309E-3	726.692535000075910E-3	27.622523946062214E-3
917.000000000000110E+0	706.039857468205190E-3	66.825534970951742E-3	430.169336369215340E-3	70.307810375301857E-3	723.474604557123530E-3	28.082799863293498E-3
918.000000000000110E+0	702.500798198825050E-3	65.885639577342031E-3	427.686554841972210E-3	70.364619207760465E-3	720.358018944698420E-3	29.109562754451260E-3
919.000000000000110E+0	699.125164853798050E-3	66.600616008784058E-3	424.669545923563480E-3	70.695416281518972E-3	718.001950366351840E-3	30.295047776026054E-3
920.000000000000110E+0	697.623682252767830E-3	67.890676466654032E-3	422.151171695685170E-3	71.233934462141532E-3	715.040960693731350E-3	30.998552620954866E-3
921.000000000000110E+0	696.872896573524800E-3	67.747285168786878E-3	420.344729464034780E-3	71.112911350322716E-3	712.870441582803990E-3	32.942497236528569E-3
922.000000000000110E+0	694.300382682923160E-3	67.291796461066464E-3	418.103156279285960E-3	70.253634300734141E-3	711.906479679024980E-3	34.698162807926862E-3
923.000000000000110E+0	691.945495970313960E-3	66.997391518551816E-3	414.776195496698420E-3	69.526629689660710E-3	710.984975239421610E-3	35.503077637382349E-3
924.000000000000110E+0	689.233718538285190E-3	65.498909956663728E-3	410.958558140639090E-3	69.277364861001819E-3	709.699582420557310E-3	35.695314095970598E-3
925.000000000000110E+0	686.181944956384850E-3	65.310920255291477E-3	407.953558195207510E-3	68.601298756703677E-3	708.849034853498370E-3	36.247761946498619E-3
926.000000000000110E+0	684.266295433911710E-3	65.387718399669614E-3	405.224259740169010E-3	67.942031344924575E-3	708.344269033492240E-3	36.430937830469440E-3
927.000000000000110E+0	681.367423692565310E-3	64.495978849890501E-3	402.628195085124870E-3	67.779961425640897E-3	707.040489445310730E-3	35.770254531178498E-3
928.000000000000110E+0	677.319706212620390E-3	64.414177481557575E-3	398.400493900640200E-3	67.505163893317024E-3	703.337303319170990E-3	35.580223745407834E-3
929.000000000000110E+0	675.032625781970760E-3	64.594570337567020E-3	394.059437874912270E-3	67.956248808556385E-3	700.427238786459180E-3	37.975888724244379E-3
930.000000000000110E+0	673.123838458162150E-3	63.007785192529392E-3	391.323463753713850E-3	67.839840538373247E-3	699.362530823992020E-3	39.793108481379749E-3
931.000000000000110E+0	669.881622339273510E-3	62.641065575028174E-3	388.624202869645110E-3	66.906732861554616E-3	698.471833797493000E-3	40.544856300134352E-3
932.000000000000110E+0	667.373990702972210E-3	63.078120462392320E-3	384.430526616078900E-3	65.439846164648860E-3	697.824088288800940E-3	39.787454543459985E-3
933.000000000000110E+0	664.178365955630620E-3	62.009414775267349E-3	379.312527270138140E-3	64.840895258884507E-3	696.790491582023660E-3	38.562039421651997E-3
934.000000000000110E+0	660.238220552479940E-3	61.355468855153285E-3	375.249404644743990E-3	65.210370071669133E-3	694.942953224099600E-3	38.381301431411628E-3
935.000000000000110E+0	657.245362138908720E-3	61.870377021960722E-3	372.320009187603880E-3	66.005318201874871E-3	693.369403247037440E-3	39.789559321070679E-3
936.000000000000110E+0	654.741890892880040E-3	61.301333814114477E-3	370.128655010507570E-3	65.794936383316960E-3	692.947634182183860E-3	39.860902713881707E-3
937.000000000000110E+0	650.506104887284440E-3	59.652988498864912E-3	366.389943265754470E-3	63.972410040062933E-3	691.654276993007080E-3	38.404725785309991E-3
938.000000000000110E+0	645.713804682139900E-3	59.364288153139808E-3	361.776093360393900E-3	63.120520260342428E-3	690.364864195105560E-3	37.421849323236757E-3
939.000000000000110E+0	641.223607140922970E-3	60.151268285449470E-3	357.804759057138210E-3	63.212708336867304E-3	689.201729503102990E-3	36.054623540415998E-3
940.000000000000110E+0	636.936427619173350E-3	61.078970175896460E-3	353.739996614675700E-3	63.013279240963255E-3	687.104897765820290E-3	34.336957546964288E-3
941.000000000000110E+0	633.249544029729440E-3	61.289249779410887E-3	349.449207767864030E-3	61.954895981654094E-3	684.168201777333510E-3	32.971717892004399E-3
942.000000000000110E+0	629.944753056571160E-3	61.357151416011363E-3	345.653991725677010E-3	61.280085384336901E-3	682.089745313142150E-3	32.596460617757748E-3
943.000000000000110E+0	626.503305474532150E-3	61.868829935913062E-3	342.635574546999670E-3	60.714862554049023E-3	680.586238913027050E-3	31.622492122131952E-3
944.000000000000110E+0	622.316086118147930E-3	62.803187367146213E-3	338.620631306167490E-3	59.589858650924830E-3	677.866253165955500E-3	31.275252987017076E-3
945.000000000000110E+0	618.760695562719180E-3	63.824647022726000E-3	334.575150173238690E-3	58.880207505941279E-3	676.953039368724750E-3	31.105055990309473E-3
946.000000000000110E+0	616.033422726555150E-3	64.206781771265306E-3	331.835105081970230E-3	58.801383827170976E-3	677.244165056256060E-3	28.728789478073762E-3
947.000000000000110E+0	612.773677022703580E-3	64.642986115978782E-3	329.763969514864420E-3	58.539554859235607E-3	676.934332313343770E-3	26.394477545446729E-3
948.000000000000110E+0	608.665230209704310E-3	66.138596583228126E-3	327.847232880996710E-3	57.037587204392760E-3	676.358750685973400E-3	25.501489642892151E-3
949.000000000000110E+0	604.930636598775660E-3	67.440342715383669E-3	325.242428224124910E-3	54.419933417507976E-3	675.565675700055100E-3	24.390591097174032E-3
950.000000000000110E+0	601.997883698074830E-3	68.021179671248821E-3	321.930364250169020E-3	53.355500917524140E-3	673.793798322503520E-3	21.476965835479516E-3
951.000000000000110E+0	599.857264454545900E-3	68.832815128114136E-3	320.069049755718930E-3	52.255430683479896E-3	672.474244018614440E-3	17.467439617894761E-3
952.000000000000110E+0	596.576640000317070E-3	70.098165629674802E-3	317.558487733633040E-3	49.343601436228152E-3	670.688703385613370E-3	12.926358368501117E-3
953.000000000000110E+0	593.513486670408370E-3	71.245930616378905E-3	314.630133219960690E-3	47.188002727727510E-3	668.258080508701950E-3	9.917002945070964E-3
954.000000000000110E+0	591.225860884864060E-3	71.694015007198408E-3	312.287139876665070E-3	45.259531875627153E-3	666.391640619516390E-3	6.183384402355682E-3
955.000000000000110E+0	588.698602236842450E-3	73.021045668894433E-3	309.697792649944790E-3	42.963456424666376E-3	663.427402465265330E-3	2.172929736104902E-3
956.000000000000110E+0	586.222598874327590E-3	75.708736397270798E-3	307.428742341258330E-3	41.281345192616885E-3	661.149232159804150E-3	-875.421174074455400E-6
957.000000000000110E+0	585.352061522867780E-3	78.006149823410170E-3	306.264071062071870E-3	39.558323001520387E-3	659.424921082679250E-3	-4.949596783898912E-3
958.000000000000110E+0	584.827997853538340E-3	77.808496866664162E-3	305.639065992052760E-3	36.811150872437283E-3	657.483240481359200E-3	-9.558603464764505E-3
959.000000000000110E+0	583.592528536143520E-3	77.147364177430469E-3	304.968247376618430E-3	33.431145015527255E-3	655.458709618396360E-3	-14.052457183781772E-3
960.000000000000110E+0	583.351349134308420E-3	77.538555633024517E-3	303.526750763102430E-3	29.646816206408660E-3	653.386536553389190E-3	-18.314435060502877E-3
961.000000000000110E+0	584.103814259172900E-3	77.646461821122947E-3	302.014188065040430E-3	25.546120512689202E-3	651.576871511497350E-3	-23.130301474157022E-3
962.000000000000110E+0	584.646399061489960E-3	76.537705394515543E-3	301.768386260265360E-3	21.086484641957996E-3	649.400711571390120E-3	-28.660813015054812E-3
963.000000000000110E+0	584.228258664500120E-3	73.944731394264690E-3	302.358070335477960E-3	15.678538967432439E-3	646.830205611424900E-3	-34.220470829429944E-3
964.000000000000110E+0	583.669781398116980E-3	71.403625699853937E-3	302.757795790124520E-3	8.523482116437036E-3	644.234166813317800E-3	-39.869745214305669E-3
965.000000000000110E+0	583.808934756094190E-3	68.815547486496570E-3	302.661437863589790E-3	260.113771046143510E-6	641.961216434868140E-3	-45.496863963111402E-3
966.000000000000110E+0	582.884830668328410E-3	66.131031252479183E-3	301.889061668428380E-3	-7.871897718242921E-3	640.633056189701340E-3	-51.566429797567231E-3
967.000000000000110E+0	582.141297177422800E-3	63.862817806226810E-3	301.264275653258580E-3	-16.050328737396528E-3	639.311984419755450E-3	-58.994743243226060E-3
968.000000000000110E+0	582.280311326451080E-3	61.077591440089708E-3	302.119171899194020E-3	-25.241816770702172E-3	637.511311820523010E-3	-67.535304883178174E-3
969.000000000000110E+0	582.455531958550710E-3	57.192461229238115E-3	304.026247780490590E-3	-36.105964178890115E-3	635.873642392109970E-3	-76.823218141831684E-3
970.000000000000110E+0	582.609256569446950E-3	52.265966322147250E-3	305.930281270518800E-3	-49.432819166270681E-3	634.674744625427720E-3	-86.837944699379013E-3
971.000000000000110E+0	583.148014772304490E-3	46.767770365829367E-3	307.488317773144170E-3	-65.100360923165831E-3	633.647841702737470E-3	-98.056368013918455E-3
972.000000000000110E+0	583.513876404258890E-3	40.140477395734175E-3	308.828463580898660E-3	-82.453201182280431E-3	631.879479033477520E-3	-111.540306289316650E-3
973.000000000000110E+0	582.481275639096130E-3	32.245864729076638E-3	309.863307600570130E-3	-101.577519245795420E-3	629.464052377270100E-3	-126.448524789159220E-3
974.000000000000110E+0	580.708863012306290E-3	24.194800219868858E-3	310.297319867673730E-3	-122.540442137535230E-3	627.201118637702450E-3	-142.995616180793180E-3
975.000000000000110E+0	579.571951790880390E-3	15.780354299128708E-3	310.607013168056500E-3	-146.135781630904740E-3	623.525778300439980E-3	-162.126932800981780E-3
976.000000000000110E+0	578.663630704584820E-3	6.025563279381083E-3	310.381513752660430E-3	-174.152001875792910E-3	618.332471462560650E-3	-182.985176358923200E-3
977.000000000000110E+0	576.874139193099380E-3	-5.954768194412438E-3	307.412903486384110E-3	-206.862764953843180E-3	611.348979372226100E-3	-205.905844413642760E-3
978.000000000000110E+0	573.347427604711130E-3	-19.793619313692164E-3	300.615756804611780E-3	-243.458167616303710E-3	601.164713842955890E-3	-231.252254709939460E-3
979.000000000000110E+0	568.723721692326880E-3	-34.735893465401305E-3	289.738434070425600E-3	-284.255708331355880E-3	587.823917664217380E-3	-258.931351901656840E-3
980.000000000000110E+0	562.038035620384570E-3	-51.711815516418867E-3	273.084736166972650E-3	-329.542195691508170E-3	570.738459622401990E-3	-289.046403485376020E-3
981.000000000000110E+0	551.175445512661730E-3	-70.706223142895042E-3	248.578098466182060E-3	-379.137333393498810E-3	547.925981357187730E-3	-321.617906163921880E-3
982.000000000000110E+0	535.871360093275290E-3	-90.388778824722210E-3	213.364074857928270E-3	-432.207675542041700E-3	517.945191238031950E-3	-356.423114935913780E-3
983.000000000000110E+0	516.808743565448370E-3	-108.752865461929050E-3	164.981600241884440E-3	-486.250016289432040E-3	478.978300559182390E-3	-391.939011227601770E-3
984.000000000000110E+0	493.991803914146770E-3	-124.841909630349230E-3	100.912300952661600E-3	-537.853264448553640E-3	428.784663093062180E-3	-423.852172280987320E-3
985.000000000000110E+0	465.862136721895690E-3	-138.461058125853770E-3	19.002649652642072E-3	-580.212910773821200E-3	367.183634086247100E-3	-448.218016752587100E-3
986.000000000000110E+0	432.706283805425310E-3	-147.361092606386970E-3	-76.543409581870087E-3	-605.460342766620640E-3	295.270041552275990E-3	-460.079148001659280E-3
987.000000000000110E+0	397.755994264248510E-3	-149.720104002356800E-3	-178.592517263904740E-3	-609.004479566943590E-3	218.887191885738850E-3	-454.297836209767440E-3
988.000000000000110E+0	363.461588703225370E-3	-144.724379256282090E-3	-280.332684639530370E-3	-588.369694869996570E-3	145.506549531141670E-3	-431.943767327108040E-3
989.000000000000110E+0	332.091969970343070E-3	-130.862220894140760E-3	-372.443398845806070E-3	-544.885699276375200E-3	80.762287175760977E-3	-393.978650883405720E-3
990.000000000000110E+0	307.003125388666360E-3	-110.796815296010830E-3	-447.497279771894410E-3	-484.945429751995950E-3	30.142222348723543E-3	-344.185173714689490E-3
991.000000000000110E+0	288.122261873837770E-3	-91.481288970994640E-3	-504.456876635395400E-3	-415.349766300050220E-3	-6.197257817965412E-3	-290.158144902848300E-3
992.000000000000110E+0	273.137837942305560E-3	-73.167982655118008E-3	-541.785424595929820E-3	-341.931432054077060E-3	-28.382267111076775E-3	-236.048182966021200E-3
993.000000000000110E+0	263.280109626345680E-3	-54.007137203259448E-3	-560.891277163777400E-3	-272.838303807955870E-3	-37.834895438560279E-3	-184.932384290696310E-3
994.000000000000110E+0	257.171072297065370E-3	-36.427778150261832E-3	-567.936013672108440E-3	-211.072081287420890E-3	-39.265861938718984E-3	-139.548122681648760E-3
995.000000000000110E+0	252.476915700277080E-3	-20.248086342307719E-3	-565.890252442248550E-3	-157.377794196913140E-3	-35.859680009507795E-3	-100.722115015631400E-3
996.000000000000110E+0	250.040717877788860E-3	-5.511645431058775E-3	-558.275645893848590E-3	-113.161285802563610E-3	-28.146745143593919E-3	-68.206322713579057E-3
997.000000000000110E+0	249.367644283367130E-3	6.824874978514524E-3	-548.880731692221730E-3	-76.070610357127297E-3	-19.087644629356249E-3	-42.252958706781758E-3
998.000000000000110E+0	249.377615677415730E-3	17.474079776441123E-3	-538.098664668073540E-3	-44.393539600261302E-3	-9.948330491036763E-3	-20.902805337016158E-3
999.000000000000110E+0	249.723851443893000E-3	26.172347386812650E-3	-526.484158442693030E-3	-17.248078430900694E-3	-1.006564792236828E-3	-3.983719587251810E-3
1.000000000000000E+3	250.824053004064740E-3	33.307996406173435E-3	-514.538094443531600E-3	4.967458218123843E-3	7.202168783208055E-3	11.836708593691164E-3
1.001000000000000E+3	252.224403954941110E-3	38.857595459585580E-3	-503.332488662378670E-3	21.272385851362135E-3	15.139105150362417E-3	24.894161282733498E-3
1.002000000000000E+3	251.996454977718280E-3	41.740516883815679E-3	-493.818046514473810E-3	33.328877907861626E-3	23.402980389150889E-3	35.217679384322145E-3
1.003000000000000E+3	250.636343506425880E-3	43.297062716109516E-3	-486.095917204199980E-3	42.691976690287632E-3	30.269278339655835E-3	42.274075623944161E-3
1.004000000000000E+3	249.722659113411320E-3	45.299583351156705E-3	-479.652723957062320E-3	51.090555742721776E-3	35.343735685975389E-3	47.155255930606675E-3
1.005000000000000E+3	249.104731978423480E-3	47.633437956566917E-3	-474.436882975314560E-3	59.157999567915058E-3	39.005087526352164E-3	50.780021715413841E-3
1.006000000000000E+3	247.887648649022990E-3	49.203456614470314E-3	-469.944069740733830E-3	66.217704213086634E-3	41.540061849215174E-3	54.588382487729278E-3
1.007000000000000E+3	246.090997216466990E-3	50.279911999030820E-3	-465.002465576104470E-3	71.490217420777921E-3	44.063835423540969E-3	58.579762372505714E-3
1.008000000000000E+3	244.284476981056260E-3	50.977486879183881E-3	-460.371570782345750E-3	74.783674289625610E-3	46.089509523547172E-3	61.445911293284840E-3
1.009000000000000E+3	241.410139989237490E-3	51.626602812893753E-3	-457.380697858413400E-3	76.853566918953828E-3	46.738938233127691E-3	63.365995024083396E-3
1.010000000000000E+3	238.135875995654420E-3	53.029076810525579E-3	-455.658276291894700E-3	78.518572786938592E-3	46.909487437104720E-3	64.849101676101153E-3
1.011000000000000E+3	235.306826327280810E-3	53.750312605983494E-3	-454.907542185020270E-3	80.564640180098318E-3	46.844909918415910E-3	65.853806067592432E-3
1.012000000000000E+3	232.629674021174680E-3	54.080676356381321E-3	-455.142258823657000E-3	83.052546450465989E-3	45.696123808465078E-3	66.873068122494675E-3
1.013000000000000E+3	229.745942880790590E-3	54.665373840588130E-3	-455.421532367222770E-3	84.805434174277397E-3	44.053348152869806E-3	68.188303890349758E-3
1.014000000000000E+3	226.500309539753750E-3	54.478954335991918E-3	-455.451622663020080E-3	85.631776870857268E-3	42.585167266107497E-3	69.307589739540862E-3
1.015000000000000E+3	223.104967787816050E-3	54.027158979420016E-3	-455.378218476491680E-3	85.665117951751926E-3	41.003591289583904E-3	70.146363398533806E-3
1.016000000000000E+3	219.841195119423520E-3	54.462598252236066E-3	-455.686364698060840E-3	85.024471391688838E-3	39.327109616939117E-3	70.728355308758803E-3
1.017000000000000E+3	216.740219838844890E-3	54.968595953307831E-3	-456.845738130160770E-3	84.416402927498593E-3	37.453844437789471E-3	70.837114094288056E-3
1.018000000000000E+3	213.467175144346490E-3	55.197893807035651E-3	-458.490167700876140E-3	83.588307998656255E-3	35.199182999468427E-3	70.780875766549248E-3
1.019000000000000E+3	210.055070916428920E-3	55.392374831585073E-3	-460.582588361941160E-3	82.296661286323250E-3	32.793652153120766E-3	70.740701396012504E-3
1.020000000000000E+3	206.403359732626880E-3	55.803425207926950E-3	-463.127964960430790E-3	81.124608928457423E-3	30.129757047659585E-3	70.320234053865560E-3
1.021000000000000E+3	202.954758438673280E-3	56.548186769198878E-3	-465.728092495471920E-3	79.799108400861782E-3	27.231961368658002E-3	69.691130283536143E-3
1.022000000000000E+3	199.784932908668080E-3	57.347978544202004E-3	-468.299679562633410E-3	78.074545588897676E-3	24.273402137139452E-3	69.262552973646765E-3
1.023000000000000E+3	197.025726317788810E-3	57.811127309009794E-3	-471.038564254631480E-3	76.240682141792651E-3	20.968013928273275E-3	68.675963525287875E-3
