Freq (Hz)	mic2/mic1_Mod	mic2/mic1_Phase(rad)	mic3/mic1_Mod	mic3/mic1_Phase(rad)	mic4/mic1_Mod	mic4/mic1_Phase(rad)
900.000000000000110E+0	746.995820560382610E-3	93.330208746840934E-3	482.819459727048150E-3	120.030331129422030E-3	760.784974935086120E-3	25.748058301034424E-3
901.000000000000110E+0	745.363800820949440E-3	95.221370506727285E-3	480.308999112840420E-3	122.323838718482530E-3	758.157950859638330E-3	27.571044169853350E-3
902.000000000000110E+0	744.338334390070580E-3	94.691520956952727E-3	477.669953068923400E-3	125.531597387490980E-3	757.280993584902530E-3	28.166321529277560E-3
903.000000000000110E+0	742.830722749119320E-3	94.746206877370537E-3	476.354900672937620E-3	126.459140581152460E-3	755.822228032724250E-3	27.810022723216702E-3
904.000000000000110E+0	742.228224218432370E-3	94.235946504336990E-3	472.763112456507590E-3	126.227592428614090E-3	754.028134373546650E-3	29.341327421674265E-3
905.000000000000110E+0	739.003212846721210E-3	91.238536811154888E-3	467.849525542454010E-3	129.995391794107910E-3	752.676116215772460E-3	30.205415878470625E-3
906.000000000000110E+0	734.726545640212340E-3	91.604838260313265E-3	464.873394196973100E-3	135.997609396209080E-3	750.391292342773130E-3	30.653430656159879E-3
907.000000000000110E+0	732.424810733536490E-3	92.501557272472723E-3	463.349494555077460E-3	136.743605678406130E-3	748.940962472414820E-3	30.064442202732595E-3
908.000000000000110E+0	728.833164288654300E-3	93.883206060898325E-3	460.732797051396690E-3	136.928735334142180E-3	746.206013161494370E-3	29.531399683098647E-3
909.000000000000110E+0	725.883700110942940E-3	94.874443037041706E-3	457.607923338246680E-3	139.515936166043570E-3	743.814500655701200E-3	30.143703810331053E-3
910.000000000000110E+0	723.531621173075120E-3	94.105349932593188E-3	454.353461885856120E-3	144.944350470071430E-3	741.655278569606450E-3	30.156659018847391E-3
911.000000000000110E+0	721.466468759066060E-3	94.450100989719149E-3	451.617281450023000E-3	150.203624808932150E-3	739.066091934051590E-3	31.736160093536907E-3
912.000000000000110E+0	719.273226366596850E-3	94.977700375947730E-3	449.414622491057130E-3	153.541822326038250E-3	736.759909882603870E-3	34.408194023712250E-3
913.000000000000110E+0	716.928200654774360E-3	95.109643713298692E-3	447.012417860150390E-3	154.185077801352240E-3	735.386641639176000E-3	34.930978063622303E-3
914.000000000000110E+0	715.451377577837170E-3	94.970476972189341E-3	444.124797918985290E-3	154.537834184265310E-3	733.389871297289160E-3	34.595532606428316E-3
915.000000000000110E+0	713.645522671944370E-3	95.204519860305925E-3	441.075724959957280E-3	155.016066323945430E-3	730.543641416515840E-3	36.063501571195658E-3
916.000000000000110E+0	711.648434189825040E-3	95.712814108742078E-3	437.860043942313930E-3	158.365864600498510E-3	727.217329451098400E-3	37.993003355907440E-3
917.000000000000110E+0	709.195271034626540E-3	94.367268221081643E-3	435.877099825283940E-3	162.009699560108630E-3	724.019438335220420E-3	38.797088472544795E-3
918.000000000000110E+0	705.583651293382630E-3	93.513736957733670E-3	433.436233867045830E-3	163.063008876536440E-3	720.945935630187050E-3	40.387880212222081E-3
919.000000000000110E+0	702.290280571075450E-3	94.976182255357922E-3	430.513722334309400E-3	164.958871091072240E-3	718.640793894722350E-3	42.168532963743385E-3
920.000000000000110E+0	700.919357694600010E-3	97.011563513006438E-3	428.119008200986690E-3	167.165629655699230E-3	715.712572010865580E-3	43.325007312848517E-3
921.000000000000110E+0	700.158216852816430E-3	96.911591280674447E-3	426.317648882744980E-3	167.590745802990550E-3	713.631189485605780E-3	46.178205977544060E-3
922.000000000000110E+0	697.553730736644510E-3	96.618516960219308E-3	423.964411741318550E-3	166.474313880624840E-3	712.751568438279470E-3	48.701236708048441E-3
923.000000000000110E+0	695.181429458449960E-3	96.523779063913684E-3	420.563009056572400E-3	166.080425144796210E-3	711.870847512332760E-3	49.893617793664038E-3
924.000000000000110E+0	692.338953097125120E-3	94.746958159958497E-3	416.756871318419210E-3	167.004918961440790E-3	710.596687816882120E-3	50.254024106979538E-3
925.000000000000110E+0	689.283089803253590E-3	94.894310253184955E-3	413.681331262648440E-3	166.600888552652950E-3	709.775214035307190E-3	51.091579307142712E-3
926.000000000000110E+0	687.383384134620970E-3	95.269594515257919E-3	410.880542621870400E-3	166.120125268625960E-3	709.280492262264310E-3	51.385842196470070E-3
927.000000000000110E+0	684.413104314382180E-3	94.375486717030915E-3	408.293505518232240E-3	166.780040298657840E-3	707.944747013698690E-3	50.548425205919879E-3
928.000000000000110E+0	680.375756978874090E-3	94.816421229108841E-3	404.079077276388590E-3	167.846285719046220E-3	704.236689304140740E-3	50.544623162144107E-3
929.000000000000110E+0	678.116143729963870E-3	95.400555103476836E-3	399.876096222845310E-3	170.772094916207710E-3	701.455975067872490E-3	54.165144748244735E-3
930.000000000000110E+0	676.066330248384690E-3	93.333084201663224E-3	397.160291631069420E-3	171.653969177305690E-3	700.493712322352020E-3	56.837829361518613E-3
931.000000000000110E+0	672.804051001680610E-3	93.239510696942737E-3	394.341580306052040E-3	170.491708670242630E-3	699.647617005040080E-3	57.982880181570745E-3
932.000000000000110E+0	670.348336872613530E-3	94.236944812865236E-3	389.960515001671230E-3	168.609233060373040E-3	698.957437713587870E-3	56.954789063610622E-3
933.000000000000110E+0	667.066765267362640E-3	93.092736099879281E-3	384.814676230043120E-3	169.306716214279810E-3	697.856733179149870E-3	55.285976321593093E-3
934.000000000000110E+0	663.082952153605580E-3	92.663159390336203E-3	380.873349095363800E-3	172.060454428052430E-3	696.002034864411810E-3	55.173374770753313E-3
935.000000000000110E+0	660.151050598228540E-3	93.859295222475075E-3	378.125496723492830E-3	175.458168415854570E-3	694.510142755394020E-3	57.322933248638838E-3
936.000000000000110E+0	657.605350660541380E-3	93.354570993061090E-3	375.931103945353340E-3	175.924662083552340E-3	694.093160378238650E-3	57.460364385914023E-3
937.000000000000110E+0	653.235540622578490E-3	91.446663947256451E-3	371.932869981421170E-3	172.859448833101950E-3	692.719684898129740E-3	55.468940264533473E-3
938.000000000000110E+0	648.436917722158830E-3	91.678198061408242E-3	367.241258309908220E-3	172.735246018280970E-3	691.378362781116860E-3	54.152903471706620E-3
939.000000000000110E+0	644.038732865628850E-3	93.533292549562164E-3	363.345692281081770E-3	174.863797129296870E-3	690.144158729688480E-3	52.265955695543903E-3
940.000000000000110E+0	639.858307304064340E-3	95.602590360620340E-3	359.308584041141960E-3	176.285347795011090E-3	687.962329773484260E-3	49.931846993715036E-3
941.000000000000110E+0	636.208579911009430E-3	96.484782774602693E-3	354.898799583325430E-3	175.469653733775020E-3	684.962234363311490E-3	48.155157774643548E-3
942.000000000000110E+0	632.925818665498680E-3	97.094575223786742E-3	351.044058289847750E-3	175.464197114781120E-3	682.868179011258510E-3	47.752777699103813E-3
943.000000000000110E+0	629.550747667059650E-3	98.433450447044907E-3	347.973320069383530E-3	175.379036842191000E-3	681.320490375707300E-3	46.430214859772868E-3
944.000000000000110E+0	625.477059039644570E-3	100.577945947801340E-3	343.823913072119850E-3	174.194668480789490E-3	678.587355195079620E-3	46.105097144082820E-3
945.000000000000110E+0	622.043715458034050E-3	102.785652371691170E-3	339.716661277288450E-3	174.201236223548330E-3	677.667279731517300E-3	45.916321257629233E-3
946.000000000000110E+0	619.370397049792350E-3	103.851168621706990E-3	337.004658283461270E-3	175.380086876810950E-3	677.853230756939710E-3	42.394718718125217E-3
947.000000000000110E+0	616.173916119398310E-3	105.103695893358450E-3	334.919624795737950E-3	175.689307729546080E-3	677.448712973468980E-3	38.971451907537646E-3
948.000000000000110E+0	612.248051384593040E-3	108.237031667840250E-3	332.771835439577450E-3	172.252031721593900E-3	676.839335147933930E-3	37.686236221765944E-3
949.000000000000110E+0	608.678301667940460E-3	111.025964927491700E-3	329.763803760041330E-3	165.785393274254460E-3	676.005830683538920E-3	36.088277691529835E-3
950.000000000000110E+0	605.828633246093040E-3	112.515171894250200E-3	326.321879291607440E-3	164.243178835962430E-3	674.135997198907160E-3	31.863897855072015E-3
951.000000000000110E+0	603.793585720610480E-3	114.248956728815580E-3	324.306686097349580E-3	161.835177117996280E-3	672.701063114376050E-3	25.969043375871068E-3
952.000000000000110E+0	600.680813925926200E-3	116.964369503674060E-3	321.369233335067890E-3	154.151556270569590E-3	670.813258358648020E-3	19.270875033799838E-3
953.000000000000110E+0	597.774406853504360E-3	119.469307533202410E-3	318.149066211803060E-3	148.869689336445430E-3	668.331661013143450E-3	14.838990099866447E-3
954.000000000000110E+0	595.556924539460850E-3	120.674132797774990E-3	315.549810581386150E-3	143.927099387237770E-3	666.420327518780000E-3	9.278638229347999E-3
955.000000000000110E+0	593.210011198555880E-3	123.407763712549370E-3	312.663687306668880E-3	137.847229058715440E-3	663.430960963872440E-3	3.275297278855146E-3
956.000000000000110E+0	591.091150498670780E-3	128.435831203424030E-3	310.187977004976470E-3	133.480952341250180E-3	661.149811727819060E-3	-1.324089358184389E-3
957.000000000000110E+0	590.526879438475260E-3	132.483061435390400E-3	308.808261130116830E-3	128.452907999884460E-3	659.443496482618240E-3	-7.505788266510390E-3
958.000000000000110E+0	589.981312634584980E-3	132.268318567787950E-3	307.847851200958870E-3	119.862598547545200E-3	657.552719113886240E-3	-14.537146395960251E-3
959.000000000000110E+0	588.669648582916590E-3	131.431821281868060E-3	306.795165159126250E-3	109.185757754976450E-3	655.609328462854690E-3	-21.435835037283000E-3
960.000000000000110E+0	588.481965863418280E-3	132.144544962952890E-3	304.971182474644780E-3	97.365626868324839E-3	653.643163110285140E-3	-28.022678547210057E-3
961.000000000000110E+0	589.242088504761780E-3	132.157816918939270E-3	303.092682303341740E-3	84.384960243591864E-3	651.987293077860300E-3	-35.484059885854909E-3
962.000000000000110E+0	589.634999200882470E-3	130.172543054915050E-3	302.504212831293030E-3	69.762990653634421E-3	650.032865624586510E-3	-44.105627552545094E-3
963.000000000000110E+0	588.889192907395830E-3	125.898789935038610E-3	302.764296575978590E-3	51.807808922672949E-3	647.734787945734800E-3	-52.855598254640007E-3
964.000000000000110E+0	588.021165843892520E-3	121.730786125272090E-3	302.877752004144350E-3	28.145373814712028E-3	645.466698035695230E-3	-61.808211154032018E-3
965.000000000000110E+0	587.850705432009900E-3	117.331995632153280E-3	302.661549637263160E-3	859.421368119326220E-6	643.571416423238560E-3	-70.753369137533578E-3
966.000000000000110E+0	586.624274231609230E-3	112.971643222526830E-3	301.991675926225890E-3	-26.069557768675738E-3	642.705071837016420E-3	-80.319758767622845E-3
967.000000000000110E+0	585.633801430180290E-3	109.266358434943940E-3	301.691525962299870E-3	-53.226253913617828E-3	642.028187195126000E-3	-92.017891156398482E-3
968.000000000000110E+0	585.474878312085440E-3	104.511609329239170E-3	303.171804993374090E-3	-83.355611422691961E-3	641.078536612159520E-3	-105.542215560431040E-3
969.000000000000110E+0	585.256716604411250E-3	97.878213865481567E-3	306.162701824979900E-3	-118.205723804945290E-3	640.497537805319260E-3	-120.232502250583820E-3
970.000000000000110E+0	584.948952538588140E-3	89.470649975770741E-3	309.898274614403060E-3	-160.197368038200060E-3	640.587901934593470E-3	-135.978419717487250E-3
971.000000000000110E+0	585.020368429912670E-3	80.027517266473516E-3	314.304187944234260E-3	-208.635657640708180E-3	641.190017547543010E-3	-153.531176769812620E-3
972.000000000000110E+0	584.892897787177900E-3	68.682752302793623E-3	319.645976516120200E-3	-260.901483173512190E-3	641.648592261164000E-3	-174.721561736566140E-3
973.000000000000110E+0	583.373150104009030E-3	55.303038067717920E-3	326.087813040131070E-3	-316.774924529535480E-3	642.039113027056410E-3	-198.244297522696370E-3
974.000000000000110E+0	581.212673587495730E-3	41.640168294549917E-3	333.617425618512990E-3	-376.113345206628700E-3	643.295413839792610E-3	-224.158588780966530E-3
975.000000000000110E+0	579.786742591184680E-3	27.220876434688460E-3	343.267218507763590E-3	-439.757642022400140E-3	644.258906453471950E-3	-254.383426990958730E-3
976.000000000000110E+0	578.695001631296280E-3	10.412518072967289E-3	355.901115250766120E-3	-511.317810990579710E-3	644.839995682731090E-3	-287.721725087617560E-3
977.000000000000110E+0	576.904872343810710E-3	-10.322107203255835E-3	370.533259983874980E-3	-592.315931687615980E-3	645.092854822588930E-3	-324.872456645232340E-3
978.000000000000110E+0	573.688992491990230E-3	-34.509200581670153E-3	386.835511061610960E-3	-680.727282070836210E-3	644.109166584604490E-3	-367.224633234622950E-3
979.000000000000110E+0	569.783514951433980E-3	-61.001142995618811E-3	405.893665750702790E-3	-775.846569403757620E-3	642.325776515101590E-3	-414.918455040930330E-3
980.000000000000110E+0	564.411964214105550E-3	-91.749362740569496E-3	427.987537048177770E-3	-878.811095120715760E-3	639.757932862096700E-3	-468.788582545619450E-3
981.000000000000110E+0	555.692128545307030E-3	-127.585783513280810E-3	453.360991495514510E-3	-990.465550816437280E-3	635.343181762032080E-3	-530.785955401246960E-3
982.000000000000110E+0	543.441115398569430E-3	-167.103321508231260E-3	482.003841517299970E-3	-1.112232762343017E+0	628.732580663051930E-3	-602.727453688267190E-3
983.000000000000110E+0	528.127317199061250E-3	-207.405481728909440E-3	513.476393576029810E-3	-1.243691007442171E+0	618.899346363067870E-3	-685.789129574649440E-3
984.000000000000110E+0	509.522722490867050E-3	-247.537592830979260E-3	547.237998097287010E-3	-1.385331967213065E+0	602.915376525713250E-3	-779.613243505542620E-3
985.000000000000110E+0	486.003081315768300E-3	-288.899484858969550E-3	580.524006844205580E-3	-1.538056862811662E+0	579.416268051221930E-3	-884.452633462007750E-3
986.000000000000110E+0	457.110511428964420E-3	-328.237577976292830E-3	610.279542679821210E-3	-1.696551039398985E+0	546.678351376945870E-3	-1.000220699975697E+0
987.000000000000110E+0	425.001106487521320E-3	-360.007957312286910E-3	634.650883049304500E-3	-1.856051968082675E+0	504.279809983010250E-3	-1.121802838204992E+0
988.000000000000110E+0	391.215378549704670E-3	-378.939381540550790E-3	651.740218122695890E-3	-2.015432530498615E+0	455.793345814957510E-3	-1.245871037281046E+0
989.000000000000110E+0	356.945370296534500E-3	-375.370163745430310E-3	660.010992802181010E-3	-2.170379958942726E+0	402.171262501149600E-3	-1.368605856517536E+0
990.000000000000110E+0	326.384517522120720E-3	-346.350328527227190E-3	659.868081695571320E-3	-2.316054720456175E+0	345.502514279029340E-3	-1.483443590916490E+0
991.000000000000110E+0	302.296649037151870E-3	-307.441312435362770E-3	653.446377869098650E-3	-2.452769042227686E+0	290.224318515738160E-3	-1.592151287336406E+0
992.000000000000110E+0	282.768159808732380E-3	-261.734209691504570E-3	640.662587116762940E-3	-2.578604783639941E+0	237.748391725211760E-3	-1.690461144220887E+0
993.000000000000110E+0	268.762324356953520E-3	-202.325130619573750E-3	623.730522600277950E-3	-2.688854150024762E+0	188.762989148531350E-3	-1.772599241931963E+0
994.000000000000110E+0	259.738220998348870E-3	-140.711933041867440E-3	605.890038806357170E-3	-2.785764269709294E+0	144.967190970105490E-3	-1.845082990599024E+0
995.000000000000110E+0	253.287540084486510E-3	-80.026497801294894E-3	587.366621383474400E-3	-2.870340594135795E+0	106.915205203031690E-3	-1.912829297987249E+0
996.000000000000110E+0	250.101457077318350E-3	-22.039422407435415E-3	569.628978724470490E-3	-2.941604336366701E+0	73.785782643320377E-3	-1.962177702497840E+0
997.000000000000110E+0	249.461020870813150E-3	27.361896577874845E-3	554.127057075445960E-3	-3.003877676017328E+0	46.364325693075671E-3	-1.995102056170832E+0
998.000000000000110E+0	249.989077091352710E-3	69.956419122950614E-3	539.926809184174350E-3	-3.059278326898846E+0	23.149439529199900E-3	-2.015005462052595E+0
999.000000000000110E+0	251.091604295539010E-3	104.423935175253990E-3	526.766613692125740E-3	-3.108843497733936E+0	4.108916454592926E-3	-1.818285962094382E+0
1.000000000000000E+3	253.025943709295430E-3	132.021845166610420E-3	514.562072324349810E-3	-3.151246562506976E+0	13.855645257936523E-3	1.024179135990798E+0
1.001000000000000E+3	255.200044426575510E-3	152.857850795799140E-3	503.781806482600960E-3	-3.183830606691939E+0	29.136090518881858E-3	1.024413902891181E+0
1.002000000000000E+3	255.429998377374010E-3	164.148913036002650E-3	494.941488628674320E-3	-3.208982675962424E+0	42.284564941736012E-3	984.278827021600190E-3
1.003000000000000E+3	254.348603939777600E-3	171.060277726305830E-3	487.967053802115300E-3	-3.229194118565528E+0	51.993525376363044E-3	949.396359281768690E-3
1.004000000000000E+3	253.798066829638070E-3	179.448255147388440E-3	482.366023353148270E-3	-3.247708266587799E+0	58.930448955706302E-3	927.603462893569650E-3
1.005000000000000E+3	253.618043336045600E-3	188.937746481126300E-3	478.110891781613530E-3	-3.265643370066255E+0	64.031300614280001E-3	915.799696337811000E-3
1.006000000000000E+3	252.723695951831030E-3	195.944136802274630E-3	474.586359934349060E-3	-3.281576577999386E+0	68.596415657549120E-3	920.311997735232200E-3
1.007000000000000E+3	251.174935974164130E-3	201.540471014341670E-3	470.465879930443310E-3	-3.294139832113643E+0	73.302183813663699E-3	925.887197884576180E-3
1.008000000000000E+3	249.546808960614790E-3	205.728405709682930E-3	466.406026038323370E-3	-3.302628040432781E+0	76.810434856101256E-3	927.242349626679400E-3
1.009000000000000E+3	246.868713707556590E-3	210.680847644348410E-3	463.792597527833970E-3	-3.308067285916641E+0	78.738666946756769E-3	935.276723465663710E-3
1.010000000000000E+3	243.968806251115470E-3	219.109059502681090E-3	462.373908245046210E-3	-3.312235794819440E+0	80.036903986905883E-3	944.561499568292270E-3
1.011000000000000E+3	241.367766326529290E-3	224.573422624282200E-3	461.986507578051150E-3	-3.316876285979837E+0	80.815650457399496E-3	952.495426645886710E-3
1.012000000000000E+3	238.833173555018650E-3	228.418142887307080E-3	462.657758217678180E-3	-3.322082863804737E+0	80.994709526205369E-3	971.348660994106660E-3
1.013000000000000E+3	236.159906350156630E-3	233.594717749485200E-3	463.250184899258340E-3	-3.325697075473196E+0	81.180923072607672E-3	997.199875074870290E-3
1.014000000000000E+3	232.959967992673270E-3	236.041192380607860E-3	463.431744485030220E-3	-3.327438151475961E+0	81.345180967202127E-3	1.019828754323069E+0
1.015000000000000E+3	229.553393699570400E-3	237.586591289707190E-3	463.365767290281120E-3	-3.327538138156340E+0	81.251503350291340E-3	1.041819532423819E+0
1.016000000000000E+3	226.486921653151760E-3	242.846792569368140E-3	463.550670053630930E-3	-3.326057022711549E+0	80.926644533829362E-3	1.063335108345898E+0
1.017000000000000E+3	223.602033615235310E-3	248.378220234521830E-3	464.579549195731630E-3	-3.324312638852954E+0	80.129190663436239E-3	1.084428246008956E+0
1.018000000000000E+3	220.488190941918430E-3	253.035544376937260E-3	466.047464441612160E-3	-3.321924230277809E+0	79.050078166373411E-3	1.109312709354465E+0
1.019000000000000E+3	217.235927063616250E-3	257.834437283532670E-3	467.877185980531800E-3	-3.318406228294323E+0	77.972241570572323E-3	1.136710583734245E+0
1.020000000000000E+3	213.813865719351510E-3	264.048304329818630E-3	470.179448830109090E-3	-3.315000086336964E+0	76.503186712328697E-3	1.165994482232750E+0
1.021000000000000E+3	210.685384874661930E-3	271.732832736157170E-3	472.515136097293010E-3	-3.311287505556971E+0	74.822679450691223E-3	1.198287538347723E+0
1.022000000000000E+3	207.852856753106140E-3	279.532803848223320E-3	474.763335302314570E-3	-3.306792439204086E+0	73.392774138456643E-3	1.233716295135740E+0
1.023000000000000E+3	205.332080474023240E-3	285.408464797009380E-3	477.168702482162420E-3	-3.302057609101731E+0	71.805609629213035E-3	1.274467721231775E+0
