Freq (Hz)	mic1(Pa^2 )	mic2(Pa^2 )	mic3(Pa^2 )	mic4(Pa^2 )
900.000000000000110E+0	18.877120902549303E-6	13.619407669312507E-6	8.285692111020408E-6	14.537616110816536E-6
901.000000000000110E+0	20.666072403954070E-6	14.841374230621717E-6	9.044066021611984E-6	15.910518620253817E-6
902.000000000000110E+0	22.450873144455281E-6	16.098820938085252E-6	9.815248592220319E-6	17.239060987968618E-6
903.000000000000110E+0	24.385392024144640E-6	17.417080433073213E-6	10.638361380656599E-6	18.643527274740526E-6
904.000000000000110E+0	26.460177960534446E-6	18.843905036184642E-6	11.482452651170672E-6	20.189057952103853E-6
905.000000000000110E+0	28.684659724478455E-6	20.412780947660693E-6	12.354968259293569E-6	21.894773101958415E-6
906.000000000000110E+0	31.051313645120799E-6	22.004514205722108E-6	13.342968869681117E-6	23.625857411753259E-6
907.000000000000110E+0	33.522322522920597E-6	23.691311780102394E-6	14.392336945178648E-6	25.445476714352002E-6
908.000000000000110E+0	36.171072054178918E-6	25.589253285106998E-6	15.489725822859932E-6	27.470738905382145E-6
909.000000000000110E+0	39.145924577822342E-6	27.608534811824503E-6	16.633614172765015E-6	29.655558100903731E-6
910.000000000000110E+0	42.280215274743014E-6	29.738966914581353E-6	17.932229167196013E-6	32.048952657788473E-6
911.000000000000110E+0	45.652594310405165E-6	32.026956864609182E-6	19.246297321308922E-6	34.626273267594598E-6
912.000000000000110E+0	49.287697067728352E-6	34.560270866488833E-6	20.725858815254439E-6	37.268574892894672E-6
913.000000000000110E+0	53.063262692719306E-6	37.192471135307592E-6	22.331754618127717E-6	40.172428094930782E-6
914.000000000000110E+0	57.118252667783076E-6	39.905580053154528E-6	23.961432153091822E-6	43.160295872064567E-6
915.000000000000110E+0	61.363253455126002E-6	42.730640022378675E-6	25.702000877500020E-6	46.216022492451423E-6
916.000000000000110E+0	65.682044214427854E-6	45.687370931150749E-6	27.451566993863632E-6	49.419762350018178E-6
917.000000000000110E+0	70.217039807597020E-6	48.648475100457896E-6	29.197537455668680E-6	52.815973228188545E-6
918.000000000000110E+0	74.966304199516624E-6	51.661899580201948E-6	31.046526213244501E-6	56.471276360612897E-6
919.000000000000110E+0	79.826860945077509E-6	54.700934441287092E-6	32.903429360545185E-6	60.007026036895421E-6
920.000000000000110E+0	84.276172546923043E-6	57.628204378137750E-6	34.632902742607429E-6	63.268317167753681E-6
921.000000000000110E+0	88.575082085602284E-6	60.414530679705083E-6	36.372696569044873E-6	66.546818659617008E-6
922.000000000000110E+0	93.097764310080090E-6	63.333622844432075E-6	38.067844176716594E-6	69.956494345547996E-6
923.000000000000110E+0	97.735279028496501E-6	66.252278420272123E-6	39.797823326603257E-6	73.543130007968404E-6
924.000000000000110E+0	102.078623454916770E-6	69.051574713246760E-6	41.387703327103441E-6	76.973901364287743E-6
925.000000000000110E+0	105.850583887697260E-6	71.485095809507190E-6	42.872588232755330E-6	79.752391565304166E-6
926.000000000000110E+0	109.218084309491550E-6	73.677451329567977E-6	44.203631761154468E-6	82.234198185319486E-6
927.000000000000110E+0	112.371794118794590E-6	75.671860748169600E-6	45.348144482973735E-6	84.409512931340900E-6
928.000000000000110E+0	115.005374201007410E-6	77.338323156275499E-6	46.278716346353688E-6	86.385167794555249E-6
929.000000000000110E+0	117.441750995452960E-6	78.616588363387274E-6	47.053532979531797E-6	88.061302907030658E-6
930.000000000000110E+0	119.418187562636650E-6	79.547187905529138E-6	47.635470580668081E-6	89.733688354838478E-6
931.000000000000110E+0	121.071516564710830E-6	79.960300164679977E-6	47.939886085715662E-6	91.344452952381669E-6
932.000000000000110E+0	121.403802102830220E-6	79.717327281569043E-6	47.852211789638116E-6	91.789961131895207E-6
933.000000000000110E+0	120.867679951891780E-6	79.237164405366464E-6	47.530062248699834E-6	91.376187781616890E-6
934.000000000000110E+0	120.094716786110320E-6	78.431695448495051E-6	46.946679792010017E-6	90.676919144524690E-6
935.000000000000110E+0	118.771438066304440E-6	77.329039642664129E-6	46.132242996851087E-6	89.745234537674494E-6
936.000000000000110E+0	116.754517493295820E-6	75.618320159652675E-6	45.173854599176211E-6	88.308010243088843E-6
937.000000000000110E+0	114.129681662130380E-6	73.674108881083375E-6	43.944907812353175E-6	86.452132612204331E-6
938.000000000000110E+0	111.254015368238450E-6	71.260445535609537E-6	42.567822378669504E-6	84.410838862109482E-6
939.000000000000110E+0	108.154471702524760E-6	68.837953492138792E-6	41.192518378709561E-6	82.203722175932281E-6
940.000000000000110E+0	104.719852221240850E-6	66.207401265517976E-6	39.750629864224055E-6	79.835167786398311E-6
941.000000000000110E+0	101.486625529501920E-6	63.805150489865852E-6	38.306344146773757E-6	77.381161215120880E-6
942.000000000000110E+0	98.670682954224778E-6	61.597939289777481E-6	37.011343469018772E-6	75.233445927794625E-6
943.000000000000110E+0	96.391643987540546E-6	59.816619913555335E-6	35.964754319010002E-6	73.628845581128155E-6
944.000000000000110E+0	94.933945489733605E-6	58.470890687773401E-6	35.277112415535344E-6	72.648905207909877E-6
945.000000000000110E+0	94.501177467249794E-6	57.817069906078782E-6	34.976949993312150E-6	72.393515096196202E-6
946.000000000000110E+0	95.212736854921381E-6	57.889241024055194E-6	35.143215620479607E-6	72.986967262172073E-6
947.000000000000110E+0	97.271208860888272E-6	58.666157807902370E-6	35.869346584576683E-6	74.641645411007102E-6
948.000000000000110E+0	100.661943614344110E-6	60.258086595727149E-6	37.053618888828802E-6	77.570976014251412E-6
949.000000000000110E+0	105.548306464529550E-6	62.826676221798078E-6	38.792872481558941E-6	81.538567638768324E-6
950.000000000000110E+0	112.241807880422210E-6	66.313478800056569E-6	41.110873122822528E-6	86.677884156905144E-6
951.000000000000110E+0	120.239438312875240E-6	70.560504865489315E-6	43.938366175017722E-6	92.850555529675667E-6
952.000000000000110E+0	129.143440651861480E-6	75.461375176124584E-6	47.235736750885578E-6	99.854160588112669E-6
953.000000000000110E+0	138.965687000110540E-6	80.974806936499826E-6	50.839297116678671E-6	107.567046513835490E-6
954.000000000000110E+0	149.078766536875100E-6	86.592089621878929E-6	54.586022826985780E-6	115.526329291890580E-6
955.000000000000110E+0	159.015650428067340E-6	92.057610542520529E-6	58.344077086631887E-6	123.328595962804630E-6
956.000000000000110E+0	168.380593593329290E-6	97.169039413777205E-6	62.035415316311369E-6	130.762444321211450E-6
957.000000000000110E+0	177.142003746288960E-6	101.855476722301610E-6	65.464612547260604E-6	137.973460525324200E-6
958.000000000000110E+0	184.618430210927750E-6	105.558519852156000E-6	68.253313115392770E-6	144.030839251501100E-6
959.000000000000110E+0	189.974108779467100E-6	108.025298606066100E-6	70.252128988554407E-6	148.330124138966720E-6
960.000000000000110E+0	193.448645426526770E-6	109.719805536885580E-6	71.561565769239619E-6	151.212104868750910E-6
961.000000000000110E+0	195.053963453507750E-6	110.593515082460890E-6	72.358708665909416E-6	152.298068087327370E-6
962.000000000000110E+0	195.167036548204180E-6	110.682035812648280E-6	72.676103086334194E-6	152.399670415716050E-6
963.000000000000110E+0	193.950460257496470E-6	110.162209084682720E-6	72.676314978743398E-6	151.792012362801140E-6
964.000000000000110E+0	192.340413872252890E-6	109.416511472159060E-6	72.674643454668985E-6	150.992582044720410E-6
965.000000000000110E+0	190.794459045040870E-6	108.470086005317870E-6	72.631093075676672E-6	150.038342675985040E-6
966.000000000000110E+0	190.348765791974720E-6	108.075521627825010E-6	72.896414061268997E-6	149.992942901541400E-6
967.000000000000110E+0	191.984119999658540E-6	108.511510631210610E-6	73.944962981251525E-6	151.739748715014650E-6
968.000000000000110E+0	196.726636962617210E-6	111.184547285123290E-6	76.309019848551517E-6	155.541658058179650E-6
969.000000000000110E+0	205.158434397799680E-6	116.107637980543530E-6	80.144893052199259E-6	161.906361466088610E-6
970.000000000000110E+0	217.630374229168670E-6	123.341852779264860E-6	85.734576533722743E-6	171.923831862299270E-6
971.000000000000110E+0	234.472454443065540E-6	132.999618985680600E-6	93.208164766396686E-6	185.266701386433160E-6
972.000000000000110E+0	254.493959545364180E-6	144.581761463148220E-6	102.273942616878240E-6	200.886070641511090E-6
973.000000000000110E+0	275.565787176684260E-6	157.110956394606410E-6	112.325504978475710E-6	217.768055654767460E-6
974.000000000000110E+0	295.904738591683630E-6	168.474180901346370E-6	122.591748955674380E-6	235.118047240229120E-6
975.000000000000110E+0	312.312174545166050E-6	177.330521294107390E-6	131.420154645061910E-6	249.605479043424790E-6
976.000000000000110E+0	321.960985772015160E-6	182.356885626953390E-6	137.358324063359940E-6	258.424081661536360E-6
977.000000000000110E+0	322.059287568901070E-6	181.705608148490650E-6	139.213880022124110E-6	259.775155786725170E-6
978.000000000000110E+0	311.073439166008340E-6	174.154239920210640E-6	136.016646045314720E-6	252.180891432697580E-6
979.000000000000110E+0	288.992200173270060E-6	159.951108638996350E-6	127.454567714173190E-6	235.003532086442740E-6
980.000000000000110E+0	257.265357514485910E-6	140.303438921656710E-6	114.208480539494750E-6	209.166606701860700E-6
981.000000000000110E+0	219.734696495174980E-6	117.867026546053060E-6	97.858603576697381E-6	178.101015477854250E-6
982.000000000000110E+0	181.382318692375830E-6	95.293545096938423E-6	80.691784183463069E-6	146.385603803724050E-6
983.000000000000110E+0	146.357467453939500E-6	74.902855339750141E-6	64.710216858040160E-6	117.270374053260390E-6
984.000000000000110E+0	117.135717656414720E-6	58.114125868006901E-6	51.151409257890224E-6	92.897961787437590E-6
985.000000000000110E+0	94.142891790657373E-6	45.220319280064495E-6	40.315037665120754E-6	73.432383037627140E-6
986.000000000000110E+0	76.542525778325649E-6	35.664937000051526E-6	31.965878581169212E-6	58.310065934383010E-6
987.000000000000110E+0	63.152644707894256E-6	28.862307572175281E-6	25.656456812228526E-6	46.623415815015101E-6
988.000000000000110E+0	52.951093763969057E-6	23.688239050190766E-6	20.628515821905964E-6	37.341776210367771E-6
989.000000000000110E+0	44.892143949815368E-6	19.730215624050420E-6	16.428556574130739E-6	29.753446342497577E-6
990.000000000000110E+0	38.134083303540198E-6	16.641940539202194E-6	12.893505207575476E-6	23.238362269065606E-6
991.000000000000110E+0	32.511349568675873E-6	14.254681197823714E-6	9.869121118627958E-6	17.706443812507689E-6
992.000000000000110E+0	27.914625163171706E-6	12.383376994288883E-6	7.250038738782976E-6	13.057714990206095E-6
993.000000000000110E+0	24.168865903731906E-6	10.895534297678473E-6	5.095347640409745E-6	9.243992693788346E-6
994.000000000000110E+0	21.253395547682524E-6	9.770221434792609E-6	3.397352685425153E-6	6.287232751195112E-6
995.000000000000110E+0	19.281225318666927E-6	9.032088422727274E-6	2.130298808665845E-6	4.184527617327243E-6
996.000000000000110E+0	18.163442356423378E-6	8.695279736422374E-6	1.280155089646930E-6	2.856346328491908E-6
997.000000000000110E+0	17.733403282060840E-6	8.686372556945869E-6	788.511360791728550E-9	2.155547654341954E-6
998.000000000000110E+0	17.824935374100509E-6	8.910722059730344E-6	563.582295115973770E-9	1.906294404478846E-6
999.000000000000110E+0	18.345928587668294E-6	9.332564268164171E-6	525.153968302025650E-9	1.976015879668201E-6
1.000000000000000E+3	19.311209341303229E-6	10.006326753763411E-6	621.863280027012860E-9	2.242538566797488E-6
1.001000000000000E+3	20.736991320183384E-6	10.936025714740235E-6	828.456057602747100E-9	2.657615864580111E-6
1.002000000000000E+3	22.940076706962146E-6	12.299080451765401E-6	1.106132846136147E-6	3.276867602661497E-6
1.003000000000000E+3	25.821937170725940E-6	13.760830903712136E-6	1.431389689796883E-6	4.137124608562618E-6
1.004000000000000E+3	28.612315240344621E-6	14.884338063314825E-6	1.851691142786347E-6	5.046949748247195E-6
1.005000000000000E+3	30.905581437925370E-6	15.762877204739134E-6	2.350091196228919E-6	5.935851345678560E-6
1.006000000000000E+3	32.547150140934541E-6	16.393468620340978E-6	2.849687097794099E-6	6.720222731573298E-6
1.007000000000000E+3	33.422214115447031E-6	16.687256034028273E-6	3.290944982923509E-6	7.314163282109895E-6
1.008000000000000E+3	33.649496527881557E-6	16.719945666000782E-6	3.650847611285364E-6	7.814125604943528E-6
1.009000000000000E+3	33.778944589498648E-6	16.624899958681862E-6	3.970147288204363E-6	8.252415533407511E-6
1.010000000000000E+3	34.108832743616948E-6	16.638410691246397E-6	4.317049543068524E-6	8.776462278778839E-6
1.011000000000000E+3	34.739226615915466E-6	16.781483513489755E-6	4.677240298291110E-6	9.374061075710358E-6
1.012000000000000E+3	36.417032245417789E-6	17.415979409620369E-6	5.106971600216693E-6	10.159831460688960E-6
1.013000000000000E+3	39.431889377624006E-6	18.622728942099494E-6	5.681193191255798E-6	11.312485699757212E-6
1.014000000000000E+3	43.192979217402153E-6	20.056559321690409E-6	6.340828900200688E-6	12.718680241989089E-6
1.015000000000000E+3	46.861469523734905E-6	21.394565229802028E-6	7.017650242808341E-6	14.203479541597474E-6
1.016000000000000E+3	50.209065772363711E-6	22.396678226113797E-6	7.596901898446075E-6	15.629745687982078E-6
1.017000000000000E+3	52.871952556147562E-6	23.011011509500811E-6	8.000015231416654E-6	16.817057047476394E-6
1.018000000000000E+3	54.182019502461099E-6	23.116197881166108E-6	8.250100825136794E-6	17.622763611400862E-6
1.019000000000000E+3	54.386444026427935E-6	22.639392282459884E-6	8.317721075869630E-6	17.963684502070785E-6
1.020000000000000E+3	53.979761081197616E-6	22.036164478874026E-6	8.269472325166656E-6	18.021298416489879E-6
1.021000000000000E+3	53.942123258246931E-6	21.707408208171456E-6	8.212725695165036E-6	18.085362189194754E-6
1.022000000000000E+3	54.978158866066455E-6	21.792957479356703E-6	8.282715150024865E-6	18.346960669756232E-6
1.023000000000000E+3	57.480963023395307E-6	22.450909849384951E-6	8.490615849095749E-6	19.051528288056951E-6
1.024000000000000E+3	61.687738398998745E-6	23.709741535797728E-6	8.866225244722575E-6	20.186719674867896E-6
1.025000000000000E+3	66.987708404684713E-6	25.419682983349457E-6	9.353046031107621E-6	21.637600718938100E-6
1.026000000000000E+3	72.854526464817112E-6	27.142398908604583E-6	9.767080271774174E-6	23.251305983891031E-6
1.027000000000000E+3	78.135786888779027E-6	28.420903963362771E-6	10.006343346874073E-6	24.562529870191160E-6
1.028000000000000E+3	81.726848857784719E-6	29.247810702996223E-6	10.012775615523151E-6	25.195627866322798E-6
1.029000000000000E+3	83.542306466611319E-6	29.336022874872683E-6	9.798985209121082E-6	25.266486666766421E-6
1.030000000000000E+3	84.047328077550116E-6	28.923599752823899E-6	9.409708886113032E-6	24.841749787355072E-6
1.031000000000000E+3	84.600574791921236E-6	28.525103154426680E-6	9.017746867546665E-6	24.370908693331781E-6
1.032000000000000E+3	86.684511445548875E-6	28.581820846639015E-6	8.785106404191666E-6	24.275597102911979E-6
1.033000000000000E+3	91.302060031745946E-6	29.441155047854894E-6	8.823246142064281E-6	24.730918337787801E-6
1.034000000000000E+3	98.658540739382839E-6	31.062546762633048E-6	9.116199179043383E-6	25.834659358705581E-6
1.035000000000000E+3	107.804116624686050E-6	33.251081892923999E-6	9.566967208242350E-6	27.280948480766807E-6
1.036000000000000E+3	117.274546575826090E-6	35.449045031969065E-6	9.956721761699971E-6	28.645719551905999E-6
1.037000000000000E+3	125.264493446949380E-6	37.045012463088608E-6	10.184151524814249E-6	29.481554895672805E-6
1.038000000000000E+3	130.545992605174140E-6	37.750887288834077E-6	10.196814520266249E-6	29.517177575918426E-6
1.039000000000000E+3	133.162724530613550E-6	37.649120875011712E-6	10.024633340484921E-6	28.841694254602284E-6
1.040000000000000E+3	134.468735705086860E-6	37.154214739057100E-6	9.856952055801988E-6	27.845280528777222E-6
1.041000000000000E+3	136.628889007613120E-6	36.898940825738820E-6	9.854446844861417E-6	27.026845758520616E-6
1.042000000000000E+3	142.472082010943490E-6	37.527577075076488E-6	10.150782581344560E-6	26.853932591278269E-6
1.043000000000000E+3	153.496105409326970E-6	39.434011997850815E-6	10.860866043798779E-6	27.384355821602560E-6
1.044000000000000E+3	169.052674587667920E-6	42.121877814432070E-6	11.925815817691587E-6	28.487316514046093E-6
1.045000000000000E+3	186.841286509248550E-6	45.066396966134692E-6	13.287025368397058E-6	29.660784691866366E-6
1.046000000000000E+3	203.049569474432580E-6	47.490112034301759E-6	14.811356252946245E-6	30.287441736718259E-6
1.047000000000000E+3	214.719926416229530E-6	48.682031708614188E-6	16.238109401421674E-6	30.217082254589278E-6
1.048000000000000E+3	222.476496577582810E-6	48.733813441041057E-6	17.523223847854113E-6	29.500091276341959E-6
1.049000000000000E+3	229.165613921894800E-6	48.181842468571676E-6	19.023543507283549E-6	28.548249701610956E-6
1.050000000000000E+3	239.138814354551090E-6	48.158991383335887E-6	21.336630547595996E-6	27.963673915548735E-6
1.051000000000000E+3	256.838079418946310E-6	49.372051321786408E-6	25.048540796902846E-6	28.066816275702852E-6
1.052000000000000E+3	284.210615345325820E-6	52.229988946703524E-6	30.639891048715921E-6	28.984858712658488E-6
1.053000000000000E+3	318.903928231524790E-6	56.053791760966916E-6	38.205245982844043E-6	30.498160559965204E-6
1.054000000000000E+3	355.021897488664890E-6	59.640139171554094E-6	47.501944359814873E-6	32.072139414499904E-6
1.055000000000000E+3	385.114124611376920E-6	61.931506086714813E-6	57.983528477708904E-6	33.342709788255935E-6
1.056000000000000E+3	404.830516808307320E-6	62.294847972290459E-6	68.809967649462184E-6	34.129056573336942E-6
1.057000000000000E+3	415.337051841659540E-6	61.136574478256272E-6	79.737930974184949E-6	34.766240656979810E-6
1.058000000000000E+3	424.300594170426520E-6	59.665460783064765E-6	91.907578927513160E-6	35.938516018131525E-6
1.059000000000000E+3	440.111405159734300E-6	59.196193063852144E-6	107.745212651138760E-6	38.522256343103531E-6
1.060000000000000E+3	467.133622820209090E-6	60.093095805669640E-6	129.122609267342860E-6	43.371454972760044E-6
1.061000000000000E+3	501.117246613627670E-6	61.657684968878651E-6	156.247556113168650E-6	50.562915114677173E-6
1.062000000000000E+3	528.265892708340500E-6	62.576405025449491E-6	185.366142313168800E-6	59.165574406668206E-6
1.063000000000000E+3	536.388134607479620E-6	61.301029950336808E-6	211.114786751911330E-6	67.988957964656101E-6
1.064000000000000E+3	519.762757502848640E-6	57.273017761223291E-6	229.307570305070250E-6	76.017731426230524E-6
1.065000000000000E+3	483.391873003350720E-6	51.396692563843853E-6	239.311846458322700E-6	82.973709332879292E-6
1.066000000000000E+3	441.310933020287810E-6	45.485781655617906E-6	245.046048909790510E-6	89.881440154315748E-6
1.067000000000000E+3	407.081508919591750E-6	40.874224494891659E-6	252.702522984907760E-6	99.094829847287116E-6
1.068000000000000E+3	383.857741850735340E-6	37.609125076273122E-6	265.764713704983390E-6	112.633912133655390E-6
1.069000000000000E+3	364.513899753304910E-6	34.563438229839869E-6	281.248721732267760E-6	130.178157130692330E-6
1.070000000000000E+3	339.855369063119820E-6	30.940118217614427E-6	291.964214612500210E-6	149.125027531626720E-6
1.071000000000000E+3	306.023252997180380E-6	26.454871243249621E-6	291.945816828336030E-6	167.037441101951220E-6
1.072000000000000E+3	265.383118137037160E-6	21.227696069226277E-6	280.918295248197970E-6	183.799588309096970E-6
1.073000000000000E+3	224.827232227292440E-6	15.807585674416869E-6	264.243010549923180E-6	203.167416534366730E-6
1.074000000000000E+3	191.455153034312940E-6	10.953499002191115E-6	249.379601614830750E-6	232.211089677373940E-6
1.075000000000000E+3	168.098813269205060E-6	7.877225368406094E-6	241.233524511578770E-6	282.071463108004690E-6
1.076000000000000E+3	153.358004151209220E-6	9.651145060641865E-6	238.662058821730340E-6	362.755868617287230E-6
1.077000000000000E+3	146.878368434175580E-6	24.832131569387372E-6	237.069762407809540E-6	463.358699637560050E-6
