Freq (Hz)	micro(Pa^2 )	hp(V^2 )
20.000000000000004E+0	329.952537597935170E-9	11.348009470810518E-9
21.000000000000004E+0	177.149826184759620E-9	12.800823931432258E-9
22.000000000000004E+0	51.481816835111228E-9	13.539290761174843E-9
23.000000000000004E+0	21.808159650088132E-9	15.202503279714894E-9
24.000000000000004E+0	4.115586915526606E-9	15.175476437134581E-9
25.000000000000004E+0	3.403637536476565E-9	16.675098308354639E-9
26.000000000000004E+0	2.126847555145637E-9	17.316514354170739E-9
27.000000000000004E+0	1.420791985992024E-9	20.089882328529506E-9
28.000000000000004E+0	985.535502018459970E-12	20.943439931683715E-9
29.000000000000004E+0	884.388587092723300E-12	22.402340279747249E-9
30.000000000000004E+0	839.980117187720480E-12	22.473189772114375E-9
31.000000000000004E+0	565.551871832654140E-12	26.620996657030066E-9
32.000000000000007E+0	1.578617200695981E-9	26.297015277371416E-9
33.000000000000007E+0	1.485045386259031E-9	29.636144887510621E-9
34.000000000000007E+0	2.087702750134941E-9	32.759367906799046E-9
35.000000000000007E+0	1.496052598118988E-9	34.307785295433385E-9
36.000000000000007E+0	1.305965409845246E-9	37.068226375661789E-9
37.000000000000007E+0	1.737714322919683E-9	39.942331504916264E-9
38.000000000000007E+0	1.766837038971629E-9	42.547008005961087E-9
39.000000000000007E+0	1.916331469246811E-9	48.156170885419652E-9
40.000000000000007E+0	541.145419681582000E-12	52.358133174644936E-9
41.000000000000007E+0	1.124077839347198E-9	56.694338234729677E-9
42.000000000000007E+0	592.769982506863410E-12	65.119864329043448E-9
43.000000000000007E+0	702.826793455099000E-12	69.399272902297961E-9
44.000000000000007E+0	495.823871601620420E-12	75.894194702525070E-9
45.000000000000007E+0	319.897154690990750E-12	81.488949320525879E-9
46.000000000000007E+0	226.406170333843060E-12	91.874114515068356E-9
47.000000000000007E+0	635.998796627690420E-12	103.139945204337070E-9
48.000000000000007E+0	564.067283136468370E-12	112.714411379832880E-9
49.000000000000007E+0	766.383500098202230E-12	125.947230045235580E-9
50.000000000000007E+0	359.946406681774040E-12	282.052807108273820E-9
51.000000000000007E+0	327.962497742061670E-12	147.170899976911250E-9
52.000000000000007E+0	1.681176787818049E-9	157.816632089930100E-9
53.000000000000007E+0	4.101929628209936E-9	169.567882311016360E-9
54.000000000000007E+0	1.168748785910702E-9	182.963261081996350E-9
55.000000000000007E+0	928.131569145094300E-12	198.854851486325930E-9
56.000000000000007E+0	1.093421581678298E-9	215.259150342432550E-9
57.000000000000007E+0	1.643674075944718E-9	233.522261675150490E-9
58.000000000000007E+0	713.022909014328400E-12	246.846335322570380E-9
59.000000000000007E+0	240.720788829925800E-12	260.568338423290120E-9
60.000000000000007E+0	318.458160010268130E-12	271.434935429627340E-9
61.000000000000007E+0	495.140731028670080E-12	285.671634586915210E-9
62.000000000000007E+0	1.218087346117963E-9	297.632075564731430E-9
63.000000000000007E+0	987.500030041614500E-12	317.680124986706510E-9
64.000000000000014E+0	681.043663212849970E-12	339.126825176840110E-9
65.000000000000014E+0	992.963329280703590E-12	366.721726043619180E-9
66.000000000000014E+0	982.555246882576820E-12	397.878890052115460E-9
67.000000000000014E+0	675.888914350929730E-12	430.406643018836110E-9
68.000000000000014E+0	1.196911942264108E-9	462.797402210091000E-9
69.000000000000014E+0	402.797554239317690E-12	498.365714617939120E-9
70.000000000000014E+0	944.371685066148470E-12	541.829791956917380E-9
71.000000000000014E+0	556.836384223268340E-12	590.737037829501280E-9
72.000000000000014E+0	899.586515682182860E-12	652.102128780143990E-9
73.000000000000014E+0	452.771996370350750E-12	720.035543801962600E-9
74.000000000000014E+0	1.468844722287330E-9	789.090700077134030E-9
75.000000000000014E+0	384.774261033866950E-12	867.852283864469230E-9
76.000000000000014E+0	340.658242927899050E-12	954.543467084424780E-9
77.000000000000014E+0	532.383209039328570E-12	1.035166621646236E-6
78.000000000000014E+0	166.943000660907560E-12	1.119652678347156E-6
79.000000000000014E+0	433.144198758432050E-12	1.214276612123308E-6
80.000000000000014E+0	246.727328979537500E-12	1.293306984855825E-6
81.000000000000014E+0	1.242504909972431E-9	1.385656782241382E-6
82.000000000000014E+0	1.161828611676086E-9	1.473275980136740E-6
83.000000000000014E+0	784.643889016501330E-12	1.550893932942242E-6
84.000000000000014E+0	1.609036070625028E-9	1.619660565300353E-6
85.000000000000014E+0	1.190936155373976E-9	1.676386336676656E-6
86.000000000000014E+0	824.703479668115850E-12	1.728216786728201E-6
87.000000000000014E+0	361.099521717007080E-12	1.776342686374644E-6
88.000000000000014E+0	1.880296232366445E-9	1.816434586363434E-6
89.000000000000014E+0	1.178586268100249E-9	1.838486498300996E-6
90.000000000000014E+0	1.681355459887521E-9	1.841837137030230E-6
91.000000000000014E+0	5.575936083939308E-9	1.800753419013753E-6
92.000000000000014E+0	5.115607584104909E-9	1.736210129253675E-6
93.000000000000014E+0	16.772032931520473E-9	1.642083646462333E-6
94.000000000000014E+0	4.930092325318871E-9	1.544311319464914E-6
95.000000000000014E+0	3.552284069882609E-9	1.447408116665310E-6
96.000000000000014E+0	6.922143386684859E-9	1.363591486766229E-6
97.000000000000014E+0	2.371650659206592E-9	1.269319525981809E-6
98.000000000000014E+0	1.557044614345598E-9	1.153318042574980E-6
99.000000000000014E+0	1.409533449478519E-9	1.005072928086229E-6
100.000000000000010E+0	7.863514797530887E-9	1.491368039220825E-6
101.000000000000010E+0	625.578732604638260E-12	675.648496291419880E-9
102.000000000000010E+0	599.163716879085760E-12	489.631258813148700E-9
103.000000000000010E+0	417.680942014961050E-12	341.672553754155800E-9
104.000000000000010E+0	534.824183191713020E-12	236.747058126152370E-9
105.000000000000010E+0	253.046825709221490E-12	159.266423660739240E-9
106.000000000000010E+0	261.039068859576020E-12	98.657751225515341E-9
107.000000000000010E+0	243.245541104302190E-12	44.735244046581261E-9
108.000000000000010E+0	258.261114986929460E-12	6.411278135018046E-9
109.000000000000010E+0	102.158304099018250E-12	7.052474948653230E-9
110.000000000000010E+0	124.845331461161730E-12	68.290055667837091E-9
111.000000000000010E+0	85.350611936892128E-12	194.497963544878050E-9
112.000000000000010E+0	120.510292051987600E-12	366.311644694885700E-9
113.000000000000010E+0	158.638791904343940E-12	547.853824951327560E-9
114.000000000000010E+0	63.664190223396350E-12	720.119066240030520E-9
115.000000000000010E+0	86.485481111485049E-12	893.147715137148770E-9
116.000000000000010E+0	43.342690710944977E-12	1.120517131041484E-6
117.000000000000010E+0	33.231787609138500E-12	1.481432527776198E-6
118.000000000000010E+0	58.821257805804939E-12	2.000807790605720E-6
119.000000000000010E+0	59.366953317869460E-12	2.657874225576378E-6
120.000000000000010E+0	3.566614952635861E-9	3.339269779292133E-6
121.000000000000010E+0	147.971697479076590E-12	3.924769868933184E-6
122.000000000000010E+0	163.950431483779670E-12	4.301242787852689E-6
123.000000000000010E+0	196.359767634536070E-12	4.511984607467784E-6
124.000000000000010E+0	63.499226475951355E-12	4.675755435576761E-6
125.000000000000010E+0	155.053142722831220E-12	5.021688463171669E-6
126.000000000000010E+0	143.280354862405770E-12	5.635825297267617E-6
127.000000000000010E+0	53.720635039347038E-12	6.509104702143577E-6
128.000000000000030E+0	72.428140731893698E-12	7.407614588983733E-6
129.000000000000030E+0	91.595970650826080E-12	8.045708851774394E-6
130.000000000000030E+0	91.516448147368070E-12	8.213516632274168E-6
131.000000000000030E+0	69.296523919279921E-12	7.951225128914338E-6
132.000000000000030E+0	150.431699745163430E-12	7.489286381528109E-6
133.000000000000030E+0	107.306102098813780E-12	7.260350735259175E-6
134.000000000000030E+0	85.093074437148298E-12	7.517516373347004E-6
135.000000000000030E+0	106.679485490072500E-12	8.258155141685556E-6
136.000000000000030E+0	47.962912453061816E-12	9.138727991719417E-6
137.000000000000030E+0	76.479319918863662E-12	9.686164541943335E-6
138.000000000000030E+0	27.322510419833989E-12	9.682080067162539E-6
139.000000000000030E+0	30.286324583313451E-12	9.136441676881806E-6
140.000000000000030E+0	16.794903288069885E-12	8.498746378891962E-6
141.000000000000030E+0	18.079439016581061E-12	8.390983962459921E-6
142.000000000000030E+0	23.771916296225084E-12	9.209553721624053E-6
143.000000000000030E+0	10.319316179708251E-12	10.858499088107242E-6
144.000000000000030E+0	20.152735741410609E-12	12.796734673023488E-6
145.000000000000030E+0	6.667634914196175E-12	14.329882733338063E-6
146.000000000000030E+0	52.088800665094045E-12	15.010600726299893E-6
147.000000000000030E+0	80.218892455021678E-12	15.038529501727711E-6
148.000000000000030E+0	87.643043488981472E-12	15.203120836967988E-6
149.000000000000030E+0	172.685678750415150E-12	16.431508458410764E-6
150.000000000000030E+0	226.344535754221400E-12	19.016657702131163E-6
151.000000000000030E+0	530.303875771081440E-12	22.964075005119566E-6
152.000000000000030E+0	859.490622708265080E-12	26.730090972595657E-6
153.000000000000030E+0	1.419746845517437E-9	29.372891994814088E-6
154.000000000000030E+0	1.532283871375597E-9	30.486975123214867E-6
155.000000000000030E+0	1.173654715561660E-9	30.362396586371163E-6
156.000000000000030E+0	1.125080808902830E-9	30.142779444317341E-6
157.000000000000030E+0	960.750746583875640E-12	31.230118335121295E-6
158.000000000000030E+0	875.345300111181480E-12	34.094976354622953E-6
159.000000000000030E+0	812.639572315594980E-12	38.002308866090120E-6
160.000000000000030E+0	881.723226058552670E-12	41.503780231993040E-6
161.000000000000030E+0	959.859979371707050E-12	43.133334315077170E-6
162.000000000000030E+0	1.283227190359511E-9	42.099869056843922E-6
163.000000000000030E+0	1.196197550138144E-9	39.091073720392823E-6
164.000000000000030E+0	1.355777176300860E-9	35.835303847173799E-6
165.000000000000030E+0	969.269978086576160E-12	34.040138119919405E-6
166.000000000000030E+0	768.778449617072580E-12	34.211766644819800E-6
167.000000000000030E+0	542.746112343123040E-12	35.652460086090560E-6
168.000000000000030E+0	330.122495014623870E-12	36.579195144929868E-6
169.000000000000030E+0	287.545371312626400E-12	35.361406714461076E-6
170.000000000000030E+0	286.650621537791840E-12	31.518842740904227E-6
171.000000000000030E+0	372.392743314395560E-12	26.314163609480367E-6
172.000000000000030E+0	410.913577946926140E-12	21.647720146426864E-6
173.000000000000030E+0	293.650518074710500E-12	19.256951058940762E-6
174.000000000000030E+0	250.993134057517940E-12	19.306550882027072E-6
175.000000000000030E+0	350.001864955860680E-12	20.525731768392817E-6
176.000000000000030E+0	260.368474350361850E-12	21.083879745879316E-6
177.000000000000030E+0	80.127571041689591E-12	19.925877404196027E-6
178.000000000000030E+0	32.158640364218822E-12	17.277283523418374E-6
179.000000000000030E+0	10.482648505837810E-12	15.017482102791987E-6
180.000000000000030E+0	8.994479352065120E-12	14.977943448584522E-6
181.000000000000030E+0	30.981759298961762E-12	17.948848953529998E-6
182.000000000000030E+0	51.120019232234400E-12	22.844735271390346E-6
183.000000000000030E+0	132.122672293489420E-12	27.470015417218191E-6
184.000000000000030E+0	138.034403753498600E-12	29.970645035046483E-6
185.000000000000030E+0	119.560400125852040E-12	30.002217930954588E-6
186.000000000000030E+0	141.656057759944320E-12	29.388526568170568E-6
187.000000000000030E+0	226.740135811036310E-12	30.395663437571291E-6
188.000000000000030E+0	308.826143610870770E-12	34.514840534332906E-6
189.000000000000030E+0	516.224884334390350E-12	41.001366912442855E-6
190.000000000000030E+0	510.131971060014540E-12	47.408322674005256E-6
191.000000000000030E+0	473.156483789827530E-12	50.807319082279482E-6
192.000000000000030E+0	367.765145055190570E-12	50.171245795605750E-6
193.000000000000030E+0	196.490632792435890E-12	46.788212699774467E-6
194.000000000000030E+0	94.952151888161453E-12	43.748129859469141E-6
195.000000000000030E+0	69.583675229335038E-12	43.629394458890382E-6
196.000000000000030E+0	60.891852617796363E-12	46.984886743016088E-6
197.000000000000030E+0	139.498812900975790E-12	51.588099422458366E-6
198.000000000000030E+0	168.044673933215520E-12	54.340764350157201E-6
199.000000000000030E+0	234.150879118570720E-12	53.199592268750337E-6
200.000000000000030E+0	212.729627029846820E-12	55.497208658567381E-6
201.000000000000030E+0	287.993615874216040E-12	43.780578461189720E-6
202.000000000000030E+0	307.760629652123340E-12	42.271951358718111E-6
203.000000000000030E+0	260.529694339532690E-12	45.036238276069144E-6
204.000000000000030E+0	215.885069659926410E-12	50.629094221606258E-6
205.000000000000030E+0	159.268647515236620E-12	55.649971579296768E-6
206.000000000000030E+0	146.388224049264400E-12	57.197167672230566E-6
207.000000000000030E+0	341.667786717069190E-12	55.160738859060679E-6
208.000000000000030E+0	609.504941957715130E-12	52.063188292055721E-6
209.000000000000030E+0	935.750644057415570E-12	51.291136641957359E-6
210.000000000000030E+0	1.417322546248326E-9	54.902223457936559E-6
211.000000000000030E+0	1.612468665592125E-9	61.492742041462496E-6
212.000000000000030E+0	1.773371493147981E-9	67.744726849043363E-6
213.000000000000030E+0	1.730307886701855E-9	69.907358119459915E-6
214.000000000000030E+0	1.295644926476896E-9	66.948941832736282E-6
215.000000000000030E+0	1.304583358521258E-9	61.107168455055890E-6
216.000000000000030E+0	1.130062216189712E-9	55.879529675442157E-6
217.000000000000030E+0	1.236287916078148E-9	53.998194937314196E-6
218.000000000000030E+0	1.401704033134816E-9	55.214619822139872E-6
219.000000000000030E+0	1.575036484819464E-9	56.708261611578815E-6
220.000000000000030E+0	1.381685312674776E-9	55.254664060479331E-6
221.000000000000030E+0	1.311567406475155E-9	49.554656240505290E-6
222.000000000000030E+0	1.072954088460332E-9	40.970237589856571E-6
223.000000000000030E+0	852.551193178438650E-12	32.801278734222857E-6
224.000000000000030E+0	878.794307187900030E-12	27.853345577993416E-6
225.000000000000030E+0	735.091328106642120E-12	26.349869405084862E-6
226.000000000000030E+0	720.722270376227120E-12	26.311416334393836E-6
227.000000000000030E+0	668.400613648707450E-12	24.994377208635887E-6
228.000000000000030E+0	552.786218050497550E-12	21.447243216456906E-6
229.000000000000030E+0	405.975795785918530E-12	16.742866449710509E-6
230.000000000000030E+0	381.265117275067240E-12	13.212880576338523E-6
231.000000000000030E+0	400.799650762819750E-12	12.547219483564036E-6
232.000000000000030E+0	570.206530783019700E-12	14.403111222928078E-6
233.000000000000030E+0	669.265057825092180E-12	16.783169287176073E-6
234.000000000000030E+0	801.653871108549600E-12	17.636541307013301E-6
235.000000000000030E+0	656.926446541569990E-12	16.281378844136074E-6
236.000000000000030E+0	660.200085053345000E-12	13.986226373091660E-6
237.000000000000030E+0	453.195389901131320E-12	12.671774873471402E-6
238.000000000000030E+0	432.169804575677620E-12	13.439414404494498E-6
239.000000000000030E+0	457.698535740707270E-12	15.592944702955619E-6
240.000000000000030E+0	417.312775874057590E-12	17.182820682604962E-6
241.000000000000030E+0	433.799289441199620E-12	16.706332609893877E-6
242.000000000000030E+0	267.508339346858950E-12	14.320779081097802E-6
243.000000000000030E+0	293.721401520027900E-12	11.802384623075617E-6
244.000000000000030E+0	159.265482532643000E-12	11.034418277690653E-6
245.000000000000030E+0	253.314039148145290E-12	12.714487219902951E-6
246.000000000000030E+0	552.410921137362920E-12	15.732490784508663E-6
247.000000000000030E+0	440.874693813507970E-12	18.130977989551482E-6
248.000000000000030E+0	299.478187248181430E-12	18.840068653437975E-6
249.000000000000030E+0	385.665409161236370E-12	18.630525616579628E-6
250.000000000000030E+0	429.317236001049280E-12	19.246083467808150E-6
251.000000000000030E+0	513.927998274407550E-12	23.070391310983309E-6
252.000000000000030E+0	577.934565183623190E-12	29.187980281695770E-6
253.000000000000030E+0	906.494590841341230E-12	35.722997667868676E-6
254.000000000000030E+0	1.284191451631633E-9	40.226096036110390E-6
255.000000000000030E+0	1.410281963980390E-9	41.763158201580755E-6
256.000000000000060E+0	1.638667140012376E-9	41.434363240109544E-6
257.000000000000060E+0	1.756333496631936E-9	41.555036026100808E-6
258.000000000000060E+0	1.970162101108338E-9	43.759080629908124E-6
259.000000000000060E+0	2.305993810340961E-9	47.626972436940462E-6
260.000000000000060E+0	2.212181156026252E-9	50.923117116889693E-6
261.000000000000060E+0	2.225560798592133E-9	51.220409892008032E-6
262.000000000000060E+0	1.766041771367515E-9	47.818671296218973E-6
263.000000000000060E+0	1.478961646409617E-9	42.306549122248924E-6
264.000000000000060E+0	1.766669147124763E-9	37.327513922574110E-6
265.000000000000060E+0	2.416557330652010E-9	34.572235570493200E-6
266.000000000000060E+0	3.051764735848748E-9	33.739955804390126E-6
267.000000000000060E+0	3.585022071710188E-9	32.947718806357895E-6
268.000000000000060E+0	3.628745394564577E-9	30.312989383309950E-6
269.000000000000060E+0	3.006288443560461E-9	25.688557775744204E-6
270.000000000000060E+0	2.177826481862568E-9	20.677263276071339E-6
271.000000000000060E+0	1.637398516328775E-9	17.320290387644635E-6
272.000000000000060E+0	1.289349866204953E-9	16.430432333581167E-6
273.000000000000060E+0	1.128817035597252E-9	17.073930342983110E-6
274.000000000000060E+0	895.518582311699120E-12	17.363572735766531E-6
275.000000000000060E+0	676.705841882323010E-12	16.196316710831279E-6
276.000000000000060E+0	545.654495274728020E-12	14.033544990446866E-6
277.000000000000060E+0	444.725265429749150E-12	12.380218921388149E-6
278.000000000000060E+0	591.066927839189870E-12	12.472102718708990E-6
279.000000000000060E+0	647.888234399325240E-12	14.069048595625073E-6
280.000000000000060E+0	582.050726739049000E-12	15.767899101249002E-6
281.000000000000060E+0	569.396224884448710E-12	16.235672591237709E-6
282.000000000000060E+0	537.632232638926330E-12	15.442629851708169E-6
283.000000000000060E+0	522.802901270535140E-12	14.871055892250103E-6
284.000000000000060E+0	388.596560125372670E-12	16.149898136248279E-6
285.000000000000060E+0	628.779275285088680E-12	19.612627780644805E-6
286.000000000000060E+0	800.355611010582990E-12	23.986389717260914E-6
287.000000000000060E+0	1.227809865335941E-9	27.525284409353434E-6
288.000000000000060E+0	1.484419752514586E-9	29.535043870734659E-6
289.000000000000060E+0	1.380260695920994E-9	31.011895199281685E-6
290.000000000000060E+0	1.443083875495967E-9	33.660692432568572E-6
291.000000000000060E+0	2.137208049707958E-9	38.311939095747725E-6
292.000000000000060E+0	2.606451590286895E-9	43.932612777065234E-6
293.000000000000060E+0	2.601669765228956E-9	48.208564663941767E-6
294.000000000000060E+0	2.568064360535582E-9	49.500983884786425E-6
295.000000000000060E+0	2.192255356589848E-9	47.984707151425992E-6
296.000000000000060E+0	2.159957104932809E-9	45.597736267038701E-6
297.000000000000060E+0	1.931227873065601E-9	44.088059447237337E-6
298.000000000000060E+0	2.215557859835720E-9	43.698577540950340E-6
299.000000000000060E+0	2.509836797217785E-9	42.943231745365735E-6
300.000000000000060E+0	2.364979550325984E-9	40.342890940168891E-6
301.000000000000060E+0	2.065167226793701E-9	35.432786726121893E-6
302.000000000000060E+0	1.367565421540831E-9	29.861379102982853E-6
303.000000000000060E+0	907.969823423185990E-12	25.897339184166762E-6
304.000000000000060E+0	693.737419367466880E-12	24.384790066026442E-6
305.000000000000060E+0	628.158908943409250E-12	24.516997526062969E-6
306.000000000000060E+0	764.523681642411380E-12	24.588965676518942E-6
307.000000000000060E+0	818.603036678870920E-12	23.816948457952253E-6
308.000000000000060E+0	758.119079618327080E-12	22.994222303562081E-6
309.000000000000060E+0	659.620442756806590E-12	23.588164646964870E-6
310.000000000000060E+0	555.388775336222140E-12	26.209784308496092E-6
